"Freq [GHz]","RCSTotal [] - IWavePhi='0deg' IWaveTheta='0deg' Phi='0deg' Theta='0deg'"
0.04,8.31356816255497E-07
0.05,2.02921132521091E-06
0.06,4.20662414918286E-06
0.07,7.79092409964401E-06
0.08,1.32866804043051E-05
0.09,2.12756424245844E-05
0.1,3.24167283874096E-05
0.11,4.7445994543553E-05
0.12,6.71764264498237E-05
0.13,9.24972908539151E-05
0.14,0.000124372700308809
0.15,0.000163839049460366
0.16,0.000212001158554379
0.17,0.00027002733890068
0.18,0.000339144081438029
0.19,0.000420631444042159
0.2,0.000515820172784405
0.21,0.00062609107673216
0.22,0.000752876374970869
0.23,0.000897662005768352
0.24,0.00106198966035725
0.25,0.00124745745496352
0.26,0.00145571859739812
0.27,0.00168847780995464
0.28,0.00194748557986091
0.29,0.00223453034099595
0.3,0.00255142870122128
0.31,0.00290001383370712
0.32,0.0032821220230128
0.33,0.00369957731785179
0.34,0.00415417426311048
0.35,0.00464765861781583
0.36,0.00518170588346686
0.37,0.00575789771583745
0.38,0.00637769602076143
0.39,0.00704241476579244
0.4,0.00775318977483697
0.41,0.00851094667011696
0.42,0.00931636704357594
0.43,0.0101698540124918
0.44,0.0110714968843374
0.45,0.0120210361387352
0.46,0.0130178293808892
0.47,0.0140608186440869
0.48,0.0151485006071063
0.49,0.0162788997459179
0.5,0.0174495459574712
0.51,0.018657457425821
0.52,0.0198991297273406
0.53,0.0211705318492457
0.54,0.0224671109647675
0.55,0.0237838055530695
0.56,0.0251150688508559
0.57,0.0264549021022482
0.58,0.0277968993619792
0.59,0.0291343020423748
0.6,0.0304600646436433
0.61,0.0317669295394248
0.62,0.0330475106259171
0.63,0.0342943835293335
0.64,0.0355001816048958
0.65,0.0366576931395249
0.66,0.0377599598726093
0.67,0.0388003720580524
0.68,0.0397727582431068
0.69,0.0406714676659889
0.7,0.0414914412746573
0.71,0.0422282706192648
0.72,0.0428782442914376
0.73,0.0434383771095447
0.74,0.0439064271270067
0.75,0.0442808956994685
0.76,0.0445610144162577
0.77,0.0447467198599919
0.78,0.0448386159883252
0.79,0.0448379287735185
0.8,0.0447464520812896
0.81,0.0445664899073716
0.82,0.0443007956170846
0.83,0.0439525085123692
0.84,0.0435250936810756
0.85,0.0430222802809601
0.86,0.0424480073997964
0.87,0.0418063697982163
0.88,0.0411015721680134
0.89,0.0403378861723211
0.9,0.0395196138954312
0.91,0.0386510569354225
0.92,0.0377364904860408
0.93,0.0367801420414466
0.94,0.0357861751711779
0.95,0.0347586784221227
0.96,0.0337016560578592
0.97,0.03261902302798
0.98,0.0315146040527996
0.99,0.0303921328524875
1,0.029255253598802
1.01,0.0281075260980477
1.02,0.0269524288549637
1.03,0.0257933647460992
1.04,0.0246336657503742
1.05,0.0234766001196294
1.06,0.0223253754483036
1.07,0.0211831448276305
1.08,0.0200530102702012
1.09,0.0189380256529677
1.1,0.0178411982030803
1.11,0.0167654903849871
1.12,0.0157138174128299
1.13,0.0146890471006627
1.14,0.0136939948007779
1.15,0.0127314187119404
1.16,0.0118040135739023
1.17,0.010914402492986
1.18,0.0100651268493601
1.19,0.00925863646021279
1.2,0.0084972763011445
1.21,0.00778327428475185
1.22,0.00711872689969377
1.23,0.00650558419602309
1.24,0.00594563507338901
1.25,0.00544049115358113
1.26,0.00499157239364482
1.27,0.00460009116634107
1.28,0.00426703842952282
1.29,0.0039931703212153
1.3,0.00377899565662947
1.31,0.00362476567562558
1.32,0.00353046509402936
1.33,0.00349580529284843
1.34,0.00352021978908861
1.35,0.00360286206295358
1.36,0.00374260606368453
1.37,0.00393804918028586
1.38,0.00418751782184425
1.39,0.004489076129013
1.4,0.00484053616901457
1.41,0.00523947193367817
1.42,0.00568323421324431
1.43,0.00616896864680667
1.44,0.00669363468762565
1.45,0.00725402660952815
1.46,0.00784679601857233
1.47,0.00846847367672443
1.48,0.00911549394580678
1.49,0.00978421820500719
1.5,0.0104709587691451
1.51,0.0111720016701035
1.52,0.0118836302346212
1.53,0.0126021461859683
1.54,0.0133238907803891
1.55,0.0140452647811865
1.56,0.0147627459975776
1.57,0.0154729064570852
1.58,0.0161724276656514
1.59,0.0168581137985015
1.6,0.0175269047821634
1.61,0.0181758852426134
1.62,0.0188022946974749
1.63,0.0194035357113105
1.64,0.0199771779002705
1.65,0.0205209646580682
1.66,0.0210328171134448
1.67,0.0215108355405477
1.68,0.0219533020791795
1.69,0.0223586825704822
1.7,0.0227256242579693
1.71,0.0230529585653562
1.72,0.0233396980114033
1.73,0.0235850367334136
1.74,0.0237883466651054
1.75,0.0239491784385597
1.76,0.0240672565988324
1.77,0.0241424800104912
1.78,0.0241749154391867
1.79,0.0241647994341957
1.8,0.0241125326221072
1.81,0.0240186772864811
1.82,0.0238839547702093
1.83,0.0237092411135435
1.84,0.0234955647724569
1.85,0.023244102143608
1.86,0.0229561732171181
1.87,0.0226332378287663
1.88,0.0222768898269563
1.89,0.0218888522177341
1.9,0.0214709719776545
1.91,0.021025213133307
1.92,0.0205536501762692
1.93,0.0200584603111769
1.94,0.019541915595792
1.95,0.0190063748482997
1.96,0.0184542741056899
1.97,0.017888115895581
1.98,0.0173104600572862
1.99,0.0167239116686873
2,0.0161311107087682
2.01,0.0155347187544201
2.02,0.0149374068945047
2.03,0.0143418436581351
2.04,0.0137506808405228
2.05,0.0131665412756034
2.06,0.0125920047566058
2.07,0.012029595744246
2.08,0.0114817693621147
2.09,0.010950899158201
2.1,0.0104392649179462
2.11,0.00994903998165811
2.12,0.00948228107447594
2.13,0.0090409165812708
2.14,0.00862673767572677
2.15,0.00824138913069767
2.16,0.00788636108423557
2.17,0.00756298311374176
2.18,0.00727241723911677
2.19,0.00701565440252756
2.2,0.00679351014964084
2.21,0.00660662270448751
2.22,0.00645545122943921
2.23,0.0063402767827285
2.24,0.00626120180134545
2.25,0.00621815381719477
2.26,0.0062108874358283
2.27,0.0062389883566308
2.28,0.00630187868059339
2.29,0.00639882290486867
2.3,0.00652893343738227
2.31,0.00669117853584354
2.32,0.00688438957041901
2.33,0.00710726877222722
2.34,0.00735839912094585
2.35,0.00763625208382047
2.36,0.00793919677938989
2.37,0.0082655100224034
2.38,0.00861338569665931
2.39,0.00898094385262688
2.4,0.00936624044199233
2.41,0.00976727816666965
2.42,0.0101820137683707
2.43,0.0106083690712188
2.44,0.0110442405059071
2.45,0.0114875071199846
2.46,0.0119360404012629
2.47,0.0123877127011244
2.48,0.0128404064339415
2.49,0.0132920220612683
2.5,0.0137404860049196
2.51,0.0141837595169879
2.52,0.0146198461454913
2.53,0.0150467982771019
2.54,0.0154627260557329
2.55,0.0158658033089662
2.56,0.0162542750199463
2.57,0.0166264634554221
2.58,0.0169807741923213
2.59,0.0173157032896149
2.6,0.0176298415467148
2.61,0.0179218807139635
2.62,0.0181906191334539
2.63,0.0184349646778492
2.64,0.0186539400444392
2.65,0.0188466881740188
2.66,0.0190124722355863
2.67,0.0191506827854177
2.68,0.0192608364599506
2.69,0.0193425800717523
2.7,0.0193956932613352
2.71,0.0194200852670334
2.72,0.0194158004160105
2.73,0.019383012776154
2.74,0.0193220301160751
2.75,0.0192332887072202
2.76,0.0191173517379324
2.77,0.0189749080914038
2.78,0.0188067677685286
2.79,0.0186138573435534
2.8,0.01839721551319
2.81,0.018157989162524
2.82,0.0178974240062602
2.83,0.0176168611279757
2.84,0.0173177288560072
2.85,0.01700153564612
2.86,0.0166698617278032
2.87,0.0163243496488074
2.88,0.0159666981616841
2.89,0.0155986518284827
2.9,0.0152219922929046
2.91,0.0148385273192049
2.92,0.0144500855712138
2.93,0.0140585027218844
2.94,0.0136656149027001
2.95,0.0132732484509086
2.96,0.0128832122997357
2.97,0.0124972871314611
2.98,0.0121172186872878
2.99,0.0117447082282075
3,0.0113814057013652
3.01,0.0110289023967669
3.02,0.0106887222371493
3.03,0.0103623180557884
3.04,0.0100510632378819
3.05,0.00975624766822233
3.06,0.00947907145104557
3.07,0.00922064197852011
3.08,0.00898196883576538
3.09,0.00876396061369888
3.1,0.00856742285041207
3.11,0.00839305489659182
3.12,0.00824144800063608
3.13,0.0081130848943725
3.14,0.00800833867926197
3.15,0.00792747195641295
3.16,0.00787063787154046
3.17,0.00783787958960875
3.18,0.00782913286518121
3.19,0.00784422636565688
3.2,0.00788288400520958
3.21,0.00794472659945693
3.22,0.00802927579558046
3.23,0.008135955522734
3.24,0.00826409600058454
3.25,0.00841293820601961
3.26,0.00858163583541097
3.27,0.00876926133220833
3.28,0.00897480899372606
3.29,0.00919720144855612
3.3,0.00943529258991711
3.31,0.00968787471840976
3.32,0.00995368229873294
3.33,0.0102313993862872
3.34,0.0105196640770414
3.35,0.0108170751125186
3.36,0.0111221983702204
3.37,0.0114335728276186
3.38,0.0117497168441939
3.39,0.0120691354097032
3.4,0.0123903260250107
3.41,0.0127117860082235
3.42,0.0130320189941441
3.43,0.0133495417290128
3.44,0.0136628895468248
3.45,0.0139706256811754
3.46,0.0142713452084849
3.47,0.014563682754512
3.48,0.0148463176775197
3.49,0.0151179822320348
3.5,0.0153774639738601
3.51,0.0156236144931369
3.52,0.0158553528881313
3.53,0.0160716716366848
3.54,0.0162716398968309
3.55,0.0164544084171331
3.56,0.0166192138048364
3.57,0.0167653804055709
3.58,0.0168923253365895
3.59,0.0169995582004714
3.6,0.0170866840022157
3.61,0.0171534062508973
3.62,0.0171995256771126
3.63,0.0172249405470115
3.64,0.0172296482520055
3.65,0.0172137437198745
3.66,0.0171774172771008
3.67,0.0171209546223412
3.68,0.0170447343338877
3.69,0.0169492244812017
3.7,0.0168349803632124
3.71,0.0167026415799585
3.72,0.0165529274422355
3.73,0.0163866325247267
3.74,0.0162046237741327
3.75,0.0160078344749979
3.76,0.0157972597956661
3.77,0.0155739510773426
3.78,0.0153390108923089
3.79,0.0150935876850299
3.8,0.0148388695200648
3.81,0.0145760783542406
3.82,0.0143064638958091
3.83,0.0140312985514247
3.84,0.0137518708875549
3.85,0.0134694793540582
3.86,0.0131854269075194
3.87,0.0129010149482798
3.88,0.0126175374555333
3.89,0.0123362750404562
3.9,0.0120584905448208
3.91,0.0117854221379938
3.92,0.0115182792798737
3.93,0.0112582360058766
3.94,0.0110064285153642
3.95,0.0107639483625276
3.96,0.0105318382019213
3.97,0.0103110893222094
3.98,0.0101026345617232
3.99,0.0099073487057122
4,0.00972604042159171
4.01,0.00955945233340877
4.02,0.00940825737997003
4.03,0.00927305547545514
4.04,0.00915437152266396
4.05,0.00905265374585141
4.06,0.00896827206442171
4.07,0.0089015160261033
4.08,0.00885259449789122
4.09,0.00882163518649675
4.1,0.00880868352455367
4.11,0.00881370354979484
4.12,0.00883657720139028
4.13,0.00887710690225065
4.14,0.00893501515210227
4.15,0.00900994643311707
4.16,0.00910146881208901
4.17,0.00920907789926458
4.18,0.00933219556465584
4.19,0.0094701778625931
4.2,0.00962231312428795
4.21,0.00978782956412635
4.22,0.00996589574532235
4.23,0.0101556280380191
4.24,0.0103560919282197
4.25,0.010566307562718
4.26,0.0107852556447112
4.27,0.0110118805597178
4.28,0.0112450966188811
4.29,0.011483792762394
4.3,0.0117268387670421
4.31,0.0119730893377904
4.32,0.0122213900126299
4.33,0.0124705837700787
4.34,0.0127195145737721
4.35,0.0129670341324383
4.36,0.0132120070845671
4.37,0.0134533151987676
4.38,0.0136898643138165
4.39,0.0139205882417918
4.4,0.0141444522357466
4.41,0.0143604607763088
4.42,0.0145676581883156
4.43,0.0147651365320146
4.44,0.0149520364481682
4.45,0.0151275529291958
4.46,0.0152909363576546
4.47,0.0154414976262147
4.48,0.0155786101114745
4.49,0.0157017120258002
4.5,0.015810307650935
4.51,0.0159039713791102
4.52,0.0159823453106846
4.53,0.0160451460428073
4.54,0.0160921590802359
4.55,0.0161232439627749
4.56,0.0161383328732622
4.57,0.016137429534937
4.58,0.0161206095124843
4.59,0.016088020314791
4.6,0.0160398794600459
4.61,0.0159764728450314
4.62,0.0158981522704008
4.63,0.0158053366540698
4.64,0.0156985070451891
4.65,0.0155782038699912
4.66,0.0154450275573029
4.67,0.0152996319286062
4.68,0.0151427234984254
4.69,0.0149750573838466
4.7,0.0147974338894369
4.71,0.0146106938872398
4.72,0.0144157181825472
4.73,0.014213419841332
4.74,0.0140047415124057
4.75,0.0137906516533717
4.76,0.0135721407479999
4.77,0.0133502155371842
4.78,0.0131258953376997
4.79,0.0129002076516404
4.8,0.0126741824540796
4.81,0.0124488501349294
4.82,0.0122252349679137
4.83,0.0120043498209889
4.84,0.0117871954208163
4.85,0.0115747516161711
4.86,0.011367975688452
4.87,0.0111677979067906
4.88,0.010975115494667
4.89,0.0107907918810307
4.9,0.0106156500317641
4.91,0.0104504698005538
4.92,0.0102959861256203
4.93,0.0101528825149263
4.94,0.0100217899335811
4.95,0.00990328538710178
4.96,0.00979788657667785
4.97,0.00970605132347185
4.98,0.00962817491190877
4.99,0.00956458951070001
5,0.00951556081610388
5.01,0.00948128931355514
5.02,0.00946190680990907
5.03,0.00945747784578242
5.04,0.0094679993008434
5.05,0.00949339915596813
5.06,0.00953353928249508
5.07,0.00958821363542342
5.08,0.0096571502842543
5.09,0.00974001318923238
5.1,0.00983640363576318
5.11,0.00994586123609472
5.12,0.0100678669463805
5.13,0.0102018450612483
5.14,0.0103471661198469
5.15,0.0105031501559729
5.16,0.0106690686968327
5.17,0.0108441484472255
5.18,0.0110275755695743
5.19,0.0112184992927592
5.2,0.0114160339168662
5.21,0.0116192654244897
5.22,0.0118272531483486
5.23,0.0120390368426256
5.24,0.0122536373599017
5.25,0.0124700648236311
5.26,0.0126873202201791
5.27,0.0129044012335578
5.28,0.0131203060395727
5.29,0.0133340386066035
5.3,0.0135446124934006
5.31,0.0137510560383241
5.32,0.013952415920693
5.33,0.0141477612812656
5.34,0.0143361896327204
5.35,0.0145168286382663
5.36,0.0146888428400068
5.37,0.0148514347858818
5.38,0.0150038489735269
5.39,0.0151453789617706
5.4,0.0152753660929188
5.41,0.0153932045804685
5.42,0.0154983452390463
5.43,0.0155902958699789
5.44,0.0156686258401506
5.45,0.0157329674452842
5.46,0.015783017235052
5.47,0.015818537512479
5.48,0.0158393595963813
5.49,0.0158453823091839
5.5,0.0158365726390665
5.51,0.0158129681178531
5.52,0.015774676233396
5.53,0.015721871347211
5.54,0.0156547992025362
5.55,0.0155737707251257
5.56,0.0154791633892615
5.57,0.0153714206046973
5.58,0.0152510464813757
5.59,0.01511860742924
5.6,0.0149747265627021
5.61,0.0148200819502734
5.62,0.0146554049591836
5.63,0.0144814740052027
5.64,0.014299112967428
5.65,0.0141091877062993
5.66,0.0139126007309883
5.67,0.0137102861703275
5.68,0.0135032083084376
5.69,0.0132923553440479
5.7,0.0130787334248647
5.71,0.0128633628664494
5.72,0.012647274606291
5.73,0.0124315027574977
5.74,0.0122170815169241
5.75,0.0120050395597145
5.76,0.0117963942234627
5.77,0.011592147661184
5.78,0.0113932806850689
5.79,0.0112007490642139
5.8,0.0110154787639304
5.81,0.0108383602006185
5.82,0.0106702444318533
5.83,0.0105119393874486
5.84,0.0103642057454663
5.85,0.01022775119423
5.86,0.0101032297736212
5.87,0.00999123656339788
5.88,0.00989230515090785
5.89,0.00980690492685007
5.9,0.00973543826122034
5.91,0.00967823859052366
5.92,0.00963556931366623
5.93,0.00960762063032299
5.94,0.00959451173526047
5.95,0.00959628546163317
5.96,0.00961291138697366
5.97,0.0096442854128743
5.98,0.00969022849197483
5.99,0.00975048953005331
6,0.00982474486724737
6.01,0.00991260027994744
6.02,0.0100135944199487
6.03,0.0101271976667503
6.04,0.0102528186216016
6.05,0.0103898029248182
6.06,0.0105374414124254
6.07,0.0106949678453137
6.08,0.0108615674748851
6.09,0.0110363803660479
6.1,0.0112185029073119
6.11,0.0114069948139952
6.12,0.0116008836431451
6.13,0.0117991695577773
6.14,0.0120008304242036
6.15,0.0122048263559049
6.16,0.0124101064004581
6.17,0.0126156123875394
6.18,0.0128202857083148
6.19,0.0130230719890082
6.2,0.0132229282995576
6.21,0.0134188235034887
6.22,0.0136097508687908
6.23,0.0137947286328026
6.24,0.0139728043913439
6.25,0.0141430635190836
6.26,0.0143046317270986
6.27,0.0144566797623626
6.28,0.0145984281987394
6.29,0.0147291509486336
6.3,0.0148481796663365
6.31,0.0149549077111292
6.32,0.0150487921488801
6.33,0.0151293552817797
6.34,0.0151961912329304
6.35,0.0152489647912004
6.36,0.0152874136112717
6.37,0.0153113505110728
6.38,0.0153206628077254
6.39,0.0153153153407844
6.4,0.0152953476378062
6.41,0.0152608767270636
6.42,0.0152120936558702
6.43,0.015149262969484
6.44,0.0150727251408249
6.45,0.0149828864563859
6.46,0.0148802266941637
6.47,0.0147652877630912
6.48,0.0146386775927538
6.49,0.0145010607474756
6.5,0.0143531620147417
6.51,0.0141957538886429
6.52,0.0140296598861759
6.53,0.0138557454439848
6.54,0.0136749165902256
6.55,0.0134881120234452
6.56,0.0132962998091687
6.57,0.0131004711229205
6.58,0.0129016371232849
6.59,0.0127008203485179
6.6,0.0124990520994502
6.61,0.0122973650102368
6.62,0.0120967871082547
6.63,0.0118983406424256
6.64,0.0117030299660581
6.65,0.0115118402192269
6.66,0.0113257346728446
6.67,0.0111456418588829
6.68,0.0109724583406888
6.69,0.0108070400472642
6.7,0.0106501977231146
6.71,0.0105026960034398
6.72,0.0103652435763307
6.73,0.0102384961449434
6.74,0.0101230487837573
6.75,0.0100194342373817
6.76,0.00992811868054602
6.77,0.00984950430806356
6.78,0.00978392085251641
6.79,0.00973162837653809
6.8,0.00969281586478488
6.81,0.00966759813269107
6.82,0.00965601855579195
6.83,0.00965804677425876
6.84,0.00967358033797986
6.85,0.0097024456491618
6.86,0.00974439899181798
6.87,0.00979912783593608
6.88,0.00986625328153183
6.89,0.0099453335035764
6.9,0.0100358639631342
6.91,0.0101372825849369
6.92,0.0102489732114834
6.93,0.0103702668355289
6.94,0.0105004493342652
6.95,0.0106387613638819
6.96,0.0107844063319507
6.97,0.0109365531651111
6.98,0.0110943400865717
6.99,0.011256882156141
7,0.0114232739030946
7.01,0.0115925938428715
7.02,0.0117639133677174
7.03,0.0119362970526328
7.04,0.0121088092815905
7.05,0.0122805210709613
7.06,0.0124505131530605
7.07,0.0126178799509522
7.08,0.0127817375725377
7.09,0.012941224288125
7.1,0.013095508110769
7.11,0.0132437885525202
7.12,0.013385304272957
7.13,0.0135193308798275
7.14,0.0136451897011536
7.15,0.0137622502576928
7.16,0.0138699302468157
7.17,0.013967702562416
7.18,0.014055093051053
7.19,0.0141316850085539
7.2,0.0141971220625853
7.21,0.0142511073571563
7.22,0.0142934073983402
7.23,0.0143238493533287
7.24,0.0143423231360227
7.25,0.0143487831344503
7.26,0.0143432452090936
7.27,0.0143257890965781
7.28,0.0142965554939413
7.29,0.0142557447775349
7.3,0.0142036175675429
7.31,0.0141404910600952
7.32,0.0140667370346357
7.33,0.0139827824631114
7.34,0.0138891026560604
7.35,0.013786222405353
7.36,0.0136747098818581
7.37,0.0135551748620587
7.38,0.0134282661949522
7.39,0.0132946667142615
7.4,0.013155088435244
7.41,0.0130102740519243
7.42,0.0128609842517588
7.43,0.0127080026401391
7.44,0.012552123501493
7.45,0.0123941553044871
7.46,0.0122349086539949
7.47,0.0120751990730469
7.48,0.0119158371234468
7.49,0.0117576261369851
7.5,0.0116013606192626
7.51,0.0114478178144268
7.52,0.0112977553432883
7.53,0.011151909004955
7.54,0.0110109866878316
7.55,0.0108756652698477
7.56,0.0107465877948624
7.57,0.0106243588967959
7.58,0.0105095436919309
7.59,0.0104026633128894
7.6,0.0103041948323364
7.61,0.0102145631434725
7.62,0.0101341466675027
7.63,0.0100632693203536
7.64,0.0100022028666728
7.65,0.00995116361407769
7.66,0.00991031232307373
7.67,0.00987975348222111
7.68,0.009859535046498
7.69,0.00984964976101626
7.7,0.00985003103293471
7.71,0.00986056113826446
7.72,0.00988106476832495
7.73,0.00991131477393666
7.74,0.00995103171744358
7.75,0.00999988662720488
7.76,0.0100575024658122
7.77,0.010123457232014
7.78,0.0101972859894723
7.79,0.0102784830368935
7.8,0.0103665062529895
7.81,0.010460779566975
7.82,0.0105606960624036
7.83,0.0106656238440167
7.84,0.0107749035011537
7.85,0.0108878613649735
7.86,0.0110038040347042
7.87,0.0111220288671574
7.88,0.0112418248789682
7.89,0.0113624771235843
7.9,0.0114832715368844
7.91,0.0116034989493857
7.92,0.0117224580509204
7.93,0.0118394599023397
7.94,0.0119538334413755
7.95,0.0120649257704249
7.96,0.0121721083427966
7.97,0.0122747803517242
